pi,prs (Pa),theta (K),qv (kg/kg),u (m/s),v (m/s),z (m)
0.9983780999999999,99432.88,298.45,0.01263799,0.005396843,0.27481872,50.0
0.99513453,98305.65,298.49,0.01260588,0.048521042,0.8227619,150.0
0.9918913,97187.695,298.53,0.012577989,0.13450336,1.3656323000000001,250.0
0.9886485,96078.97,298.56,0.01254799,0.26281357,1.9000831000000002,350.00002
0.9854059000000001,94979.414,298.6,0.01251858,0.43266058,2.4228194,450.00002
0.9821638,93889.03,298.64,0.01249192,0.64299774,2.9306183,550.0
0.978922,92807.734,298.68,0.0124586,0.89252806,3.4203483999999995,650.00004
0.9756806,91735.484,298.72,0.01243183,1.1797128000000001,3.8889918,750.00006
0.9724396000000001,90672.25,298.76,0.01240232,1.5027814,4.333657700000001,850.0
0.96919894,89617.97,298.8,0.01237502,1.8597426,4.7516055,950.00005
0.9659587,88572.61,298.84,0.01235375,2.248394,5.140257,1050.0001000000002
0.96272147,87536.945,299.4,0.012130318999999999,2.6663422999999997,5.497218599999999,1150.0001
0.9594898999999999,86511.74,299.96,0.011908321000000001,3.1110082,5.820287,1250.0
0.95626384,85496.9,300.51,0.011687729499999999,3.5796509,6.1074720000000005,1350.0
0.9530433,84492.28,301.07,0.01146297,4.0693817,6.3570023,1450.0
0.9498283000000002,83497.87,301.63,0.01124538,4.5771809999999995,6.5673394,1550.0001000000002
0.9466189,82513.52,302.19,0.01102925,5.0999165,6.737186400000001,1650.0001
0.943415,81539.164,302.74,0.01081459,5.634367500000001,6.8654966,1750.0001
0.94021654,80574.7,303.3,0.010596248999999999,6.177238,6.951478999999999,1850.0001
0.9370235999999998,79620.055,303.86,0.01037958,6.725181599999999,6.994603,1950.0
0.93383604,78675.12,304.41,0.01016971,7.2625,7.0,2050.0002
0.93065387,77739.8,304.96,0.00995644,7.7875,7.0,2150.0
0.92747706,76813.99,305.52,0.00974492,8.3125,7.0,2250.0
0.92430437,75897.29,305.89,0.00917052,8.8375,7.0,2350.0000999999997
0.92113316,74988.85,305.99,0.00875701,9.3625,7.0,2450.0
0.91796225,74088.3,306.1,0.008341409000000001,9.8875,7.0,2550.0002
0.9147924000000001,73195.79,306.34,0.00794525,10.4125,7.0,2650.0
0.9116245000000001,72311.53,306.61,0.00756776,10.9375,7.0,2750.0002
0.90845865,71435.5,306.88,0.0072079403,11.4625,7.0,2850.0000999999997
0.90529495,70567.664,307.16,0.00686488,11.9875,7.0,2950.0
0.9021334999999999,69708.016,307.44,0.00653768,12.5125,7.0,3050.0002
0.8989744000000001,68856.49,307.73,0.00622553,13.0375,7.0,3150.0
0.89581776,68013.07,308.03,0.00592765,13.5625,7.0,3250.0002
0.8926636,67177.73,308.33,0.0056433002000000005,14.0875,7.0,3350.0001
0.8895120000000001,66350.4,308.63,0.00537181,14.6125,7.0,3450.0
0.8863629999999999,65531.07,308.94,0.00511254,15.1375,7.0,3550.0002
0.88321674,64719.676,309.25,0.00486487,15.6625,7.0,3650.0
0.8800732,63916.195,309.57,0.00462824,16.1875,7.0,3750.0002
0.87693244,63120.566,309.89,0.00440212,16.7125,7.0,3850.0001
0.8737944999999999,62332.74,310.21,0.0041859997,17.2375,7.0,3950.0002999999997
0.8706594999999999,61552.69,310.54,0.0039794,17.7625,7.0,4050.0
0.86752737,60780.35,310.86,0.00378189,18.2875,7.0,4150.0
0.8643982,60015.684,311.2,0.0035930402,18.8125,7.0,4250.0
0.86127204,59258.64,311.53,0.00341245,19.3375,7.0,4350.0004
0.85814893,58509.176,311.87,0.00323976,19.8625,7.0,4450.0003
0.85502887,57767.23,312.2,0.00307461,20.3875,7.0,4550.0
0.85191184,57032.74,312.54,0.0029166602000000002,20.9125,7.0,4650.0
0.8487978999999999,56305.676,312.88,0.00276562,21.4375,7.0,4750.0
0.84568715,55585.98,313.23,0.0026211801,21.9625,7.0,4850.0004
0.84257954,54873.605,313.57,0.00248305,22.4875,7.0,4950.0003
0.83947504,54168.48,313.91,0.00235099,23.0125,7.0,5050.0
0.8363735999999999,53470.54,314.25,0.00222474,23.5375,7.0,5150.0
0.8332753,52779.746,314.59,0.00210405,24.0625,7.0,5250.000499999999
0.8301801999999999,52096.06,314.94,0.0019887201000000003,24.5875,7.0,5350.0004
0.8270883,51419.414000000004,315.28,0.00187853,25.1125,7.0,5450.0003
0.8239995000000001,50749.75,315.62,0.0017732601,25.6375,7.0,5550.0
0.8209138000000001,50086.992,315.95,0.00167275,26.1625,7.0,5650.0
0.81783116,49431.098,316.29,0.00157679,26.6875,7.0,5750.000499999999
0.8147515999999999,48782.02,316.62,0.0014852299,27.2125,7.0,5850.0004
0.8116751999999999,48139.69,316.96,0.0013978799,27.7375,7.0,5950.0003
0.80860186,47504.074,317.29,0.00131461,28.0,7.0,6050.0
0.8055315,46875.082,317.61,0.00123525,28.0,7.0,6150.0
0.8024641,46252.664000000004,317.94,0.0011596599,28.0,7.0,6250.000499999999
0.79939973,45636.77,318.26,0.0010877,28.0,7.0,6350.0004
0.7963383,45027.35,318.58,0.00101925,28.0,7.0,6450.0003
0.7932798000000001,44424.348,318.89,0.0009541699499999999,28.0,7.0,6550.0
0.7902241999999999,43827.687999999995,319.2,0.00089234,28.0,7.0,6650.0
0.78717136,43237.312000000005,319.5,0.00083364,28.0,7.0,6750.0005
0.78412133,42653.18,319.81,0.0007779599400000001,28.0,7.0,6850.0004
0.78107405,42075.227,320.1,0.00072519,28.0,7.0,6950.0003
0.77802944,41503.39,320.39,0.00067522004,28.0,7.0,7050.0
0.77498746,40937.613,320.68,0.00062794,28.0,7.0,7150.000599999999
0.7719481,40377.855,320.96,0.0005832599700000001,28.0,7.0,7250.0005
0.7689113000000001,39824.05,321.23,0.00054107,28.0,7.0,7350.0004
0.76587695,39276.133,321.5,0.00050128,28.0,7.0,7450.0003
0.7628451,38734.066,321.77,0.0004638,28.0,7.0,7550.0
0.75981563,38197.793,322.02,0.00042853,28.0,7.0,7650.000599999999
0.75678843,37667.24,322.27,0.00039538,28.0,7.0,7750.0005
0.7537635,37142.36,322.52,0.00036427,28.0,7.0,7850.0004
0.7507408,36623.117,322.76,0.00033510000000000007,28.0,7.0,7950.0003
0.7477203,36109.45,322.99,0.00030780000000000005,28.0,7.0,8050.000000000001
0.74470186,35601.293,323.22,0.00028228,28.0,7.0,8150.000999999999
0.7416855,35098.617,323.44,0.00025845997000000003,28.0,7.0,8250.0
0.7386710999999999,34601.36,323.65,0.00023626,28.0,7.0,8350.0
0.7356585999999999,34109.45,323.85,0.0002156,28.0,7.0,8450.001
0.7326479,33622.86,324.05,0.0001964,28.0,7.0,8550.0
0.729639,33141.53,324.25,0.00017859999,28.0,7.0,8650.001
0.7266318,32665.422000000002,324.43,0.00016211,28.0,7.0,8750.0
0.7236264,32194.492000000002,324.62,0.00014687,28.0,7.0,8850.0
0.72062254,31728.68,324.79,0.00013280999,28.0,7.0,8950.001
0.71762025,31267.938,324.96,0.00011986,28.0,7.0,9050.0
0.71461946,30812.225,325.12,0.00010795,28.0,7.0,9150.001
0.71162015,30361.498,325.28,9.702e-05,28.0,7.0,9250.0
0.7086222,29915.709,325.43,8.7010005e-05,28.0,7.0,9350.0
0.70562565,29474.812,325.57,7.786001e-05,28.0,7.0,9450.001
0.70263034,29038.764,325.71,6.9509995e-05,28.0,7.0,9550.0
0.6996361999999999,28607.514,325.84,6.191e-05,28.0,7.0,9650.001
0.6966433000000001,28181.031000000003,325.97,5.5009998e-05,28.0,7.0,9750.0
0.69365156,27759.275,326.1,4.8749996e-05,28.0,7.0,9850.0
0.69066095,27342.209,326.22,4.309e-05,28.0,7.0,9950.001
0.6876714,26929.783,326.33,3.798e-05,28.0,7.0,10050.0
0.68468285,26521.957000000002,326.44,3.339e-05,28.0,7.0,10150.001
0.6816953,26118.695,326.55,2.9249998999999997e-05,28.0,7.0,10250.000999999998
0.6787086999999999,25719.96,326.65,2.555e-05,28.0,7.0,10350.0
0.67572296,25325.715,326.75,2.225e-05,28.0,7.0,10450.001
0.67273813,24935.922000000002,326.84,1.9300001e-05,28.0,7.0,10550.0
0.66975415,24550.541,326.93,1.667e-05,28.0,7.0,10650.001
0.66677094,24169.535,327.02,1.435e-05,28.0,7.0,10750.000999999998
0.66378856,23792.877,327.11,1.229e-05,28.0,7.0,10850.0
0.66080695,23420.527000000002,327.19,1.048e-05,28.0,7.0,10950.001
0.65782607,23052.45,327.27,8.890000999999999e-06,28.0,7.0,11050.0
0.6548459,22688.611,327.35,7.4900004e-06,28.0,7.0,11150.001
0.65186644,22328.98,327.42,6.28e-06,28.0,7.0,11250.000999999998
0.64888763,21973.52,327.5,5.220000300000001e-06,28.0,7.0,11350.0
0.64590955,21622.205,327.57,4.2999999999999995e-06,28.0,7.0,11450.001
0.64293206,21274.99,327.64,3.51e-06,28.0,7.0,11550.0
0.6399552,20931.854,327.71,2.8299998999999996e-06,28.0,7.0,11650.001
0.636979,20592.758,327.77,2.2499999e-06,28.0,7.0,11750.000999999998
0.63400334,20257.674,327.84,1.76e-06,28.0,7.0,11850.0
0.63102823,19926.561999999998,327.9,1.35e-06,28.0,7.0,11950.001
0.6280571,19599.773,328.71,1.1699998999999999e-06,28.0,7.0,12050.0
0.62509674,19277.99,330.28,1.19e-06,28.0,7.0,12150.001
0.62215036,18961.498,331.85,1.21e-06,28.0,7.0,12250.000999999998
0.619218,18650.213,333.44,1.2300001e-06,28.0,7.0,12350.0
0.61629957,18344.053,335.03,1.25e-06,28.0,7.0,12450.001
0.61339504,18042.93,336.63,1.28e-06,28.0,7.0,12550.0
0.61050427,17746.758,338.23,1.3e-06,28.0,7.0,12650.001
0.60762715,17455.451,339.84,1.32e-06,28.0,7.0,12750.000999999998
0.6047637,17168.938000000002,341.46,1.3399999e-06,28.0,7.0,12850.0
0.6019138,16887.133,343.09,1.3599999e-06,28.0,7.0,12950.001
0.59907746,16609.965,344.73,1.39e-06,28.0,7.0,13050.0
0.5962546,16337.356000000002,346.37,1.41e-06,28.0,7.0,13150.001000000002
0.5934451,16069.231000000002,348.02,1.43e-06,28.0,7.0,13250.001
0.59064895,15805.513,349.68,1.46e-06,28.0,7.0,13350.0
0.58786607,15546.131000000001,351.35,1.4799998999999999e-06,28.0,7.0,13450.001
0.5850964,15291.0205,353.03,1.51e-06,28.0,7.0,13550.0
0.58233994,15040.1045,354.71,1.53e-06,28.0,7.0,13650.001000000002
0.5795965000000001,14793.3125,356.4,1.56e-06,28.0,7.0,13750.001
0.5768661,14550.577,358.1,1.58e-06,28.0,7.0,13850.0
0.57414865,14311.835,359.81,1.61e-06,28.0,7.0,13950.001
0.57144415,14077.021999999999,361.53,1.64e-06,28.0,7.0,14050.0
0.56875247,13846.069,363.25,1.6600001e-06,28.0,7.0,14150.001000000002
0.56607354,13618.91,364.98,1.69e-06,28.0,7.0,14250.001
0.5634073,13395.485,366.72,1.7199999e-06,28.0,7.0,14350.0
0.5607536999999999,13175.731000000002,368.47,1.75e-06,28.0,7.0,14450.001
0.55811274,12959.595,370.23,1.78e-06,28.0,7.0,14550.001000000002
0.5554843,12747.011,371.99,1.81e-06,28.0,7.0,14650.001000000002
0.5528683000000001,12537.919,373.77,1.8400001000000001e-06,28.0,7.0,14750.001
0.5502648,12332.268,375.55,1.8699999e-06,28.0,7.0,14850.0
0.5476736,12129.997,377.34,1.9e-06,28.0,7.0,14950.001
0.54509467,11931.048,379.14,1.93e-06,28.0,7.0,15050.001000000002
0.54252803,11735.373,380.95,1.97e-06,28.0,7.0,15150.001000000002
0.5399735999999999,11542.917,382.77,2e-06,28.0,7.0,15250.001
0.5374313000000001,11353.623,384.59,2.0300001e-06,28.0,7.0,15350.0
0.5349010000000001,11167.438,386.43,2.07e-06,28.0,7.0,15450.001
0.5323828,10984.315,388.27,2.0999998e-06,28.0,7.0,15550.001000000002
0.5298765000000001,10804.2,390.12,2.14e-06,28.0,7.0,15650.001000000002
0.5273821,10627.048,391.98,2.17e-06,28.0,7.0,15750.001
0.5248995,10452.804,393.85,2.21e-06,28.0,7.0,15850.0
0.5224287000000001,10281.424,395.73,2.2499999e-06,28.0,7.0,15950.001
0.51996964,10112.862,397.62,2.28e-06,28.0,7.0,16050.001000000002
0.5175223,9947.072,399.51,2.32e-06,28.0,7.0,16150.002
0.51508653,9784.006,401.42,2.36e-06,28.0,7.0,16250.0
0.51266235,9623.619,403.33,2.4e-06,28.0,7.0,16350.000000000002
0.5102497,9465.868,405.26,2.44e-06,28.0,7.0,16450.0
0.50784844,9310.709,407.19,2.48e-06,28.0,7.0,16550.001
0.5054586,9158.098,409.13,2.5200002e-06,28.0,7.0,16650.002
0.50308007,9007.993,411.08,2.57e-06,28.0,7.0,16750.0
0.5007129,8860.357,413.04,2.6100001000000004e-06,28.0,7.0,16850.0
0.49835688,8715.146,415.01,2.65e-06,28.0,7.0,16950.0
0.49601206,8572.319,416.99,2.7000000000000004e-06,28.0,7.0,17050.001
0.4936784000000001,8431.84,418.98,2.74e-06,28.0,7.0,17150.002
0.4913558,8293.669,420.98,2.79e-06,28.0,7.0,17250.0
0.48904422,8157.7666,422.98,2.84e-06,28.0,7.0,17350.0
0.48674359999999994,8024.0957,425.0,2.88e-06,28.0,7.0,17450.0
0.48445392,7892.621999999999,427.03,2.93e-06,28.0,7.0,17550.001
0.48217508,7763.3076,429.06,2.98e-06,28.0,7.0,17650.002
0.47990707,7636.116,431.11,3.03e-06,28.0,7.0,17750.0
0.47764984,7511.0166,433.17,3.08e-06,28.0,7.0,17850.0
0.4754032999999999,7387.97,435.23,3.13e-06,28.0,7.0,17950.0
